dataID,featureName,spo2Rmse,spo2Corr,spo2StdRatio,lowRecall,rSpO2Corr,rTrackingCorr,rSnr,rSnrDb,reliableRatio,meanBeatCount,meanBeatValidRatio,baseTimeOffset,spo2TimeOffset,prTimeOffset,totalSpo2Offset,windowCount
182,currentSpO2,6.05744242092937,0.857565765867108,1.1079794390634,1,-0.750179633950399,0.750179633950399,1.13451446251937,1.09620073077116,1,NaN,NaN,-1500,-500,-1550,-2000,358
182,beat30Raw,5.68799507694941,0.826684315598704,1.05531417885517,1,-0.816914098725163,0.816914098725163,1.41638638285848,3.02363485596251,0.970501474926254,40.4601769911504,1,-1500,-950,-1550,-2450,358
182,beat30Fixed,5.71245988710319,0.84464303737601,0.959571772495446,1,-0.834567556445715,0.834567556445715,1.51490116949914,3.60768601727852,0.970501474926254,40.4601769911504,1,-1500,-950,-1550,-2450,358
182,beat30Smoothed,5.46661330745463,0.857275224988747,1.00310304644099,1,-0.847244762834683,0.847244762834683,1.59495566906484,4.05497233158723,0.970501474926254,40.4601769911504,1,-1500,-950,-1550,-2450,358
183,currentSpO2,5.26864451091762,0.939900831312463,1.04470226182676,1,-0.725902530413887,0.725902530413887,1.05540139638056,0.468353288957259,1,NaN,NaN,-1500,-200,-1550,-1700,470
183,beat30Raw,4.96664944494459,0.898354480985949,0.954618332641041,1,-0.894457433855975,0.894457433855975,2.00033819402342,6.02206854709418,0.980349344978166,41.2423580786026,1,-1500,-600,-1550,-2100,470
183,beat30Fixed,4.99728639263585,0.91058439957766,0.905042578780165,1,-0.900031637104177,0.900031637104177,2.06512369333168,6.29892138834785,0.980349344978166,41.2423580786026,1,-1500,-600,-1550,-2100,470
183,beat30Smoothed,4.7145976808086,0.948560926934314,0.926111923284825,1,-0.934253103815328,0.934253103815328,2.61981286527771,8.36540541051832,0.980349344978166,41.2423580786026,1,-1500,-600,-1550,-2100,470
184,currentSpO2,2.48452543246052,0.969773325245352,0.699344279223559,1,-0.631477307245034,0.631477307245034,0.814395024572075,-1.78329776516336,1,NaN,NaN,-1500,-150,-1500,-1650,423
184,beat30Raw,3.0705030698687,0.941679295482232,0.683060522547055,1,-0.957457796889304,0.957457796889304,3.31790118877366,10.4172689610161,0.975728155339806,40.9320388349515,1,-1500,-550,-1500,-2050,423
184,beat30Fixed,3.06782414375582,0.963442257067542,0.618306636023063,1,-0.96008204454209,0.96008204454209,3.43231452210518,10.7117415564706,0.975728155339806,40.9320388349515,1,-1500,-550,-1500,-2050,423
184,beat30Smoothed,2.93778755136699,0.97322028799884,0.648303997207246,1,-0.969286402962539,0.969286402962539,3.94123506815897,11.9126467676485,0.975728155339806,40.9320388349515,1,-1500,-550,-1500,-2050,423
187,currentSpO2,1.31272822333466,0.991963563895142,0.805918581130282,1,-0.482795877655194,0.482795877655194,0.551304934099326,-5.17216241261229,1,NaN,NaN,-1500,-250,550,-1750,206
187,beat30Raw,1.91121413171714,0.94081789983866,0.718714881957702,1,-0.983582776101297,0.983582776101297,5.45049430470951,14.7287178035991,0.963730569948187,48.1813471502591,1,-1500,-650,550,-2150,206
187,beat30Fixed,1.96180222999799,0.987467219481132,0.60612519388869,1,-0.982905012086714,0.982905012086714,5.33858541161265,14.5485239071747,0.963730569948187,48.1813471502591,1,-1500,-650,550,-2150,206
187,beat30Smoothed,1.6710843754139,0.99366129385916,0.657431416751507,1,-0.993832445826661,0.993832445826661,8.96215302815377,19.0482471037819,0.963730569948187,48.1813471502591,1,-1500,-650,550,-2150,206
188,currentSpO2,1.71711152004894,0.984730581802589,0.84959451941351,1,-0.710982528532617,0.710982528532617,1.01105339685749,0.0954818526346441,1,NaN,NaN,-1500,-150,-1500,-1650,259
188,beat30Raw,1.75830359465223,0.926729473738484,0.769818303540396,1,-0.957863811734625,0.957863811734625,3.33491603078182,10.4616980674369,0.967871485943775,46.0803212851406,1,-1500,-500,-1500,-2000,259
188,beat30Fixed,1.9039070555467,0.972653915832688,0.613219881412578,1,-0.96767174305109,0.96767174305109,3.83672427880363,11.6792118062407,0.132530120481928,46.0803212851406,1,-1500,-500,-1500,-2000,259
188,beat30Smoothed,1.70418715752165,0.9852397800944,0.646249032604189,1,-0.983670125318416,0.983670125318416,5.46541732899412,14.7524665892438,0.132530120481928,46.0803212851406,1,-1500,-500,-1500,-2000,259
193,currentSpO2,2.94804949214847,0.918208226765502,0.972842069706364,1,-0.518253189538435,0.518253189538435,0.605983024718984,-4.3507908293519,1,NaN,NaN,-1500,0,-1200,-1500,469
193,beat30Raw,2.48948743003825,0.831523796805639,0.954195223542479,0.997395833333333,-0.834072581597376,0.834072581597376,1.51194679094363,3.59073015126429,0.982646420824295,43.3622559652928,1,-1500,-400,-1200,-1900,469
193,beat30Fixed,2.47294485898004,0.854261167573418,0.842246892833935,0.997395833333333,-0.851870845332064,0.851870845332064,1.62647778388803,4.22496271232386,0.982646420824295,43.3622559652928,1,-1500,-400,-1200,-1900,469
193,beat30Smoothed,2.33445201180064,0.903911340064827,0.840998150606241,1,-0.905081476825297,0.905081476825297,2.12841060121325,6.56110826794553,0.982646420824295,43.3622559652928,1,-1500,-400,-1200,-1900,469
194,currentSpO2,2.448263937335,0.99762500325018,0.757070700398283,1,-0.71520850061271,0.71520850061271,1.02331819561124,0.200213927636525,1,NaN,NaN,-1500,-50,-1400,-1550,175
194,beat30Raw,2.44477570245228,0.979270280721685,0.815703901412271,1,-0.990927662320953,0.990927662320953,7.37317613045139,17.3530921690955,0.945121951219512,39.2682926829268,1,-1500,-550,-1400,-2050,175
194,beat30Fixed,2.4295427923902,0.993531165838009,0.75287941333973,1,-0.990406605415257,0.990406605415257,7.16731467382834,17.1071294431154,0.945121951219512,39.2682926829268,1,-1500,-550,-1400,-2050,175
194,beat30Smoothed,2.58893897357892,0.99521722011046,0.767716418290062,1,-0.996407905629198,0.996407905629198,11.7662658092573,21.4127731043665,0.945121951219512,39.2682926829268,1,-1500,-550,-1400,-2050,175
196,currentSpO2,2.10363258362619,0.986329126662912,0.911639193827625,1,-0.419511315754978,0.419511315754978,1.17756692908745,1.41971200786254,0.894736842105263,NaN,NaN,-3000,-650,-2900,-3650,298
196,beat30Raw,2.95792440854102,0.966144406165588,0.713608867936319,1,-0.963824936890678,0.963824936890678,3.61611409328165,11.1648424919346,0.967741935483871,39.8745519713262,0.997788887579355,-3000,-950,-2900,-3950,298
196,beat30Fixed,2.97548514685672,0.974356845396337,0.645288880299577,1,-0.967294307683944,0.967294307683944,3.81339937468323,11.6262458203351,0.627240143369176,39.8745519713262,0.997788887579355,-3000,-950,-2900,-3950,298
196,beat30Smoothed,2.83081339633831,0.98908928124997,0.659698117657486,1,-0.983809569258865,0.983809569258865,5.48948813223636,14.79063701028,0.627240143369176,39.8745519713262,0.997788887579355,-3000,-950,-2900,-3950,298
197,currentSpO2,1.17129886916056,0.974576323984838,0.832914954316955,1,-0.466375518198915,0.466375518198915,0.527224120402829,-5.56009458139841,1,NaN,NaN,-2000,50,-1850,-1950,307
197,beat30Raw,1.88214956155838,0.902589249919793,0.726431877212745,1,-0.922445047825692,0.922445047825692,2.38895940097922,7.56417538444488,0.970099667774086,39.7840531561462,1,-2000,-300,-1850,-2300,307
197,beat30Fixed,1.93728085828309,0.924992214021818,0.63305116234996,1,-0.929416608307562,0.929416608307562,2.51852438931291,8.02292321817063,0.933554817275748,39.7840531561462,1,-2000,-300,-1850,-2300,307
197,beat30Smoothed,1.67612407487584,0.963929190182605,0.646020861742466,1,-0.968914464614101,0.968914464614101,3.91645227614684,11.8578567764779,0.933554817275748,39.7840531561462,1,-2000,-300,-1850,-2300,307
198,currentSpO2,1.80630040322334,0.911883966583958,0.685866352183951,1,0.769445058202399,-0.769445058202399,1.20468043159821,1.61743711747067,1,NaN,NaN,-1500,450,-1500,-1050,80
198,beat30Raw,6.87115594205271,0.587839209125023,11.3201339734068,0.890625,-0.652098086669759,0.652098086669759,0.860134966705976,-1.30866793567184,0.890625,37.140625,1,-1500,-800,-1500,-2300,80
198,beat30Fixed,5.24524322364232,0.599868558033893,8.80009966774795,0.890625,-0.585860516084588,0.585860516084588,0.722916966671388,-2.81823164711924,0.5,37.140625,1,-1500,-800,-1500,-2300,80
198,beat30Smoothed,6.97427066331014,0.805570530057244,11.3169870783983,0.796875,-0.802558583745881,0.802558583745881,1.34528072936977,2.5762584227453,0.5,37.140625,1,-1500,-800,-1500,-2300,80
200,currentSpO2,1.77603226593651,0.996090350086847,0.825967908415326,1,-0.767873699338586,0.767873699338586,1.19867652504219,1.57404000321238,1,NaN,NaN,-1500,-150,-1350,-1650,111
200,beat30Raw,3.37970264417153,0.959031590005669,1.06947760839813,1,-0.965192091481632,0.965192091481632,3.69039018420423,11.3414457290798,0.91,32.13,1,-1500,-550,-1350,-2050,111
200,beat30Fixed,3.27764596376819,0.976063528044257,0.988427485243482,1,-0.962531758152689,0.962531758152689,3.54956442948955,11.00350127251,0.84,32.13,1,-1500,-550,-1350,-2050,111
200,beat30Smoothed,2.06538248514914,0.995217922128867,0.814400971439675,1,-0.995575846997881,0.995575846997881,10.5955904572315,20.5025032703412,0.84,32.13,1,-1500,-550,-1350,-2050,111
201,currentSpO2,5.79210290667731,0.985565201729507,0.827662278906482,1,-0.449387582638244,0.449387582638244,0.503043798186669,-5.96788401726293,1,NaN,NaN,-1500,300,-1350,-1200,180
201,beat30Raw,7.36834271723857,0.925758430743945,0.920019782015046,1,-0.947571827222362,0.947571827222362,2.96539832018541,9.44166074415681,0.937853107344633,37.6158192090396,1,-1500,-150,-1350,-1650,180
201,beat30Fixed,8.01280425253437,0.94909246043334,0.430387578846142,1,-0.940366876918369,0.940366876918369,2.76446833524378,8.83223239620115,0,37.6158192090396,1,-1500,-150,-1350,-1650,180
201,beat30Smoothed,7.64866444947789,0.97716153183336,0.442637279346437,1,-0.966052297467624,0.966052297467624,3.73936544698828,11.4559582137812,0,37.6158192090396,1,-1500,-150,-1350,-1650,180
203,currentSpO2,3.6620630123978,0.997171472815211,0.84265951315332,0.970588235294118,-0.732501408962964,0.732501408962964,1.07599664385822,0.636218334486062,0.903225806451613,NaN,NaN,-1500,50,-1400,-1450,125
203,beat30Raw,2.21535637884574,0.99028424792595,0.90032310729551,1,-0.981970286506403,0.981970286506403,5.19463891005887,14.3111072849508,0.923728813559322,34.9237288135593,1,-1500,-350,-1400,-1850,125
203,beat30Fixed,6.94048501908374,0.979337835444121,0.566347857933367,1,-0.972154496067746,0.972154496067746,4.14846357417372,12.3577456219216,0,34.9237288135593,1,-1500,-350,-1400,-1850,125
203,beat30Smoothed,7.41651409969961,0.988916426186753,0.556795390252903,0.971014492753623,-0.989004305784436,0.989004305784436,6.68758005407617,16.5053798761683,0,34.9237288135593,1,-1500,-350,-1400,-1850,125
204,currentSpO2,6.80918103353137,0.984302105126658,0.380498690358748,1,-0.0168622377349874,0.0168622377349874,0.0168646355090281,-35.460460813336,1,NaN,NaN,-1500,3700,-1500,2200,250
204,beat30Raw,6.46650500080974,0.96897790289055,0.447018557259879,1,-0.970179385582949,0.970179385582949,4.00258776503382,12.0468172700504,1,50.8571428571429,1,-1500,3400,-1500,1900,250
204,beat30Fixed,6.46650500080974,0.96897790289055,0.447018557259879,1,-0.970179385582949,0.970179385582949,4.00258776503382,12.0468172700504,1,50.8571428571429,1,-1500,3400,-1500,1900,250
204,beat30Smoothed,6.15779539867415,0.982905729624342,0.440054076520897,1,-0.982996064211476,0.982996064211476,5.35323273145105,14.5723224943745,1,50.8571428571429,1,-1500,3400,-1500,1900,250
206,currentSpO2,1.81259569246388,0.977703730229853,0.749280865609485,1,-0.567054729219701,0.567054729219701,0.688440473387697,-3.2426721087767,1,NaN,NaN,-1500,-50,-1450,-1550,247
206,beat30Raw,2.74496861378102,0.91585114713677,0.727995195478843,1,-0.936229395126375,0.936229395126375,2.66436426365195,8.51187199914964,0.96218487394958,41.9411764705882,1,-1500,-450,-1450,-1950,247
206,beat30Fixed,2.71218871418043,0.941380323631938,0.638882403098002,1,-0.944660593504722,0.944660593504722,2.87962969708476,9.18673287426414,0.96218487394958,41.9411764705882,1,-1500,-450,-1450,-1950,247
206,beat30Smoothed,2.42079952186411,0.972685609294948,0.664614846851538,1,-0.974747040427515,0.974747040427515,4.36495778340368,12.7996009538513,0.96218487394958,41.9411764705882,1,-1500,-450,-1450,-1950,247
207,currentSpO2,3.18666944869283,0.976198863732026,0.807228034529946,1,-0.212330463567985,0.212330463567985,0.217285013905832,-13.2594045166119,1,NaN,NaN,-1500,-50,-1300,-1550,149
207,beat30Raw,4.21508365877747,0.906702369672351,0.852923062949121,1,-0.915918321618627,0.915918321618627,2.28201011540281,7.16635130343084,0.935251798561151,37.9856115107914,1,-1500,-500,-1300,-2000,149
207,beat30Fixed,4.14355569257858,0.927552276459434,0.795853299053465,1,-0.917004356426764,0.917004356426764,2.29896415828142,7.23064401014469,0.935251798561151,37.9856115107914,1,-1500,-500,-1300,-2000,149
207,beat30Smoothed,3.01012807389349,0.976405721745154,0.82220213101758,1,-0.968362441568615,0.968362441568615,3.88046635057651,11.7776784361697,0.935251798561151,37.9856115107914,1,-1500,-500,-1300,-2000,149
208,currentSpO2,4.45964996888985,0.990473031550045,0.938382795858029,1,-0.967196652861773,0.967196652861773,3.807429027361,11.6126363317558,0.996666666666667,NaN,NaN,-2000,200,750,-1800,304
208,beat30Raw,4.29507837457612,0.984563861039087,0.99737097599105,1,-0.988325247514777,0.988325247514777,6.48682729344868,16.2406467068681,0.972881355932203,42.6,1,-2000,-450,750,-2450,304
208,beat30Fixed,2.74121390524625,0.97860606404183,0.753589838385565,1,-0.983316842999124,0.983316842999124,5.4057792846536,14.6571661938326,0,42.6,1,-2000,-450,750,-2450,304
208,beat30Smoothed,2.4995783123892,0.983266505058042,0.754250611736801,1,-0.989123440258107,0.989123440258107,6.72471450785798,16.5534770291208,0,42.6,1,-2000,-450,750,-2450,304
209,currentSpO2,2.4237857832831,0.989799074817607,0.791539891327247,1,-0.953781904362088,0.953781904362088,3.17398604962122,10.0321002720323,1,NaN,NaN,-1500,650,-1100,-850,394
209,beat30Raw,3.05499685068114,0.985171290232188,0.729685947778201,1,-0.982093916841938,0.982093916841938,5.21303460832584,14.3418121626687,1,44.3098958333333,1,-1500,500,-1100,-1000,394
209,beat30Fixed,6.02700321056824,0.970640580974678,0.412768814019741,1,-0.9671993351378,0.9671993351378,3.8075926640764,11.6130096282501,0,44.3098958333333,1,-1500,500,-1100,-1000,394
209,beat30Smoothed,6.00415534794119,0.979103762720007,0.420581955637535,1,-0.977142825295435,0.977142825295435,4.59650516137508,13.2485550423688,0,44.3098958333333,1,-1500,500,-1100,-1000,394
210,currentSpO2,2.81545750008787,0.991032208758762,0.779213106872842,1,-0.205493861918348,0.205493861918348,0.209975064815065,-13.5566455201976,1,NaN,NaN,-1500,250,-1450,-1250,168
210,beat30Raw,5.20859992017847,0.893594169186939,0.974185768809155,1,-0.862139463653847,0.862139463653847,1.70157635132141,4.61702882136799,0.945454545454545,37.4,1,-1500,-150,-1450,-1650,168
210,beat30Fixed,5.14810924092925,0.895152638507916,0.927903038695106,1,-0.884795291645927,0.884795291645927,1.89878413504183,5.56951188780054,0.945454545454545,37.4,1,-1500,-150,-1450,-1650,168
210,beat30Smoothed,2.01827590822821,0.988665191577825,0.932746050085232,1,-0.986159270835252,0.986159270835252,5.94785730381937,15.4872108146607,0.945454545454545,37.4,1,-1500,-150,-1450,-1650,168
211,currentSpO2,3.42218456526143,0.996827906036018,0.857776845847278,0.992481203007519,-0.595514868282317,0.595514868282317,0.741294708570187,-2.60018199802303,1,NaN,NaN,-1500,50,-1550,-1450,192
211,beat30Raw,3.22670497330884,0.980092475350001,0.857749119932926,1,-0.980619633024001,0.980619633024001,5.00517245670901,13.9883809198503,0.92972972972973,34.8810810810811,1,-1500,-350,-1550,-1850,192
211,beat30Fixed,3.00642154184448,0.990959491629521,0.80275426889994,1,-0.983150740234272,0.983150740234272,5.37838434835483,14.6130366881483,0.92972972972973,34.8810810810811,1,-1500,-350,-1550,-1850,192
211,beat30Smoothed,3.21678187466474,0.995575507968723,0.822748743243152,1,-0.996965653566531,0.996965653566531,12.8074396326824,22.1492463504956,0.92972972972973,34.8810810810811,1,-1500,-350,-1550,-1850,192
212,currentSpO2,2.20398065683399,0.992697084177035,0.886392012723521,1,-0.594843012526279,0.594843012526279,0.740000013700082,-2.61536544457318,1,NaN,NaN,-1500,200,-1500,-1300,230
212,beat30Raw,3.6196226480115,0.93622649807788,0.810761048388673,1,-0.935385916226245,0.935385916226245,2.64510820825173,8.44886886417546,0.951541850220264,34.0044052863436,1,-1500,-150,-1500,-1650,230
212,beat30Fixed,3.58781772776848,0.940118438785975,0.76712131783408,1,-0.940209675174561,0.940209675174561,2.76048204415834,8.81969853143719,0.951541850220264,34.0044052863436,1,-1500,-150,-1500,-1650,230
212,beat30Smoothed,2.63533203447947,0.991018866380073,0.776601570937456,1,-0.989664394626421,0.989664394626421,6.90128674006539,16.7786014437614,0.951541850220264,34.0044052863436,1,-1500,-150,-1500,-1650,230
213,currentSpO2,4.04744785683772,0.985434913303901,0.521554963289046,1,0.190603619817725,-0.190603619817725,0.194163197778471,-14.2366616797412,1,NaN,NaN,-1500,900,-1450,-600,153
213,beat30Raw,3.86755827682999,0.871132415859693,0.882516466429768,1,-0.825188986692397,0.825188986692397,1.46088189956892,3.29230216346788,0.966442953020134,38.8590604026846,1,-1500,200,-1450,-1300,153
213,beat30Fixed,3.80253159774749,0.878388727852035,0.816429239185652,1,-0.85967881251663,0.85967881251663,1.68288959823413,4.52111252212619,0.966442953020134,38.8590604026846,1,-1500,200,-1450,-1300,153
213,beat30Smoothed,1.74982325979632,0.979476759299525,0.885752854208633,0.985611510791367,-0.959309261928244,0.959309261928244,3.39749916040602,10.6231871616237,0.966442953020134,38.8590604026846,1,-1500,200,-1450,-1300,153
214,currentSpO2,2.65694755133213,0.969060323604427,0.822370814566403,1,-0.462744545003575,0.462744545003575,0.521995365737596,-5.64666705273344,1,NaN,NaN,-1500,350,-1450,-1150,213
214,beat30Raw,2.99570160988461,0.914446103267515,0.82345630800168,1,-0.929543800477309,0.929543800477309,2.52105854638072,8.03165862772837,0.95260663507109,36.0094786729858,1,-1500,-100,-1450,-1600,213
214,beat30Fixed,3.00635365784349,0.938742627870102,0.74116720120049,1,-0.935394160021139,0.935394160021139,2.64529464228704,8.44948104646174,0.95260663507109,36.0094786729858,1,-1500,-100,-1450,-1600,213
214,beat30Smoothed,2.54072652947933,0.971242170378089,0.757891861682826,1,-0.964354677529206,0.964354677529206,3.64439602837742,11.2325112935363,0.95260663507109,36.0094786729858,1,-1500,-100,-1450,-1600,213
215,currentSpO2,5.05515243348242,0.977997922515073,0.631361602884939,1,-0.153296058747646,0.153296058747646,0.155129643570301,-16.1861041070569,1,NaN,NaN,-3000,900,-2850,-2100,162
215,beat30Raw,3.60169236004393,0.931563635910493,0.86905591823483,1,-0.94220876925256,0.94220876925256,2.81234253189182,8.98136429744622,0.942675159235669,39.5222929936306,1,-3000,-250,-2850,-3250,162
215,beat30Fixed,3.64442839678387,0.945849455961764,0.794912957711706,1,-0.94598225647117,0.94598225647117,2.9177315615857,9.30090666489245,0.942675159235669,39.5222929936306,1,-3000,-250,-2850,-3250,162
215,beat30Smoothed,2.7718982504645,0.965127113393426,0.853232304384547,1,-0.968249903685531,0.968249903685531,3.87324366736639,11.761496389832,0.942675159235669,39.5222929936306,1,-3000,-250,-2850,-3250,162
216,currentSpO2,1.49600837383861,0.971039762086711,1.18637089602412,1,-0.682522665548631,0.682522665548631,0.933856731981418,-0.594394922559845,1,NaN,NaN,-3000,-350,-2750,-3350,268
216,beat30Raw,1.52313202022188,0.938830001845872,0.925957369802899,1,-0.942915559189467,0.942915559189467,2.83130700527357,9.03973926979788,0.956521739130435,37.897233201581,1,-3000,-750,-2750,-3750,268
216,beat30Fixed,1.59837479971493,0.952104772448182,0.826508737782406,1,-0.94308928444065,0.94308928444065,2.83602078126066,9.05418817728521,0.956521739130435,37.897233201581,1,-3000,-750,-2750,-3750,268
216,beat30Smoothed,1.36551363387554,0.971939573977918,0.838022587512759,1,-0.963810679874265,0.963810679874265,3.61536137135885,11.1630342690885,0.956521739130435,37.897233201581,1,-3000,-750,-2750,-3750,268
217,currentSpO2,3.25852333660632,0.97602370035469,0.860941526023424,1,-0.712134017996907,0.712134017996907,1.01437300022771,0.123953619740274,1,NaN,NaN,-1500,550,-1300,-950,442
217,beat30Raw,2.76012721580297,0.934026424372905,0.811848216678962,1,-0.960649758048979,0.960649758048979,3.45852854222307,10.7778272826929,0.988636363636364,47.6454545454545,1,-1500,100,-1300,-1400,442
217,beat30Fixed,2.77122517069169,0.962155551793444,0.751554808527352,1,-0.961007237564294,0.961007237564294,3.47532206948269,10.8199011656747,0.988636363636364,47.6454545454545,1,-1500,100,-1300,-1400,442
217,beat30Smoothed,2.60538910993625,0.975605362718126,0.772698530540683,1,-0.973104931879023,0.973104931879023,4.22423682551206,12.5149651655619,0.988636363636364,47.6454545454545,1,-1500,100,-1300,-1400,442
218,currentSpO2,3.99035127321833,0.967654292142265,1.30117351977485,1,-0.595414428470346,0.595414428470346,0.741101003764297,-2.60245197028739,1,NaN,NaN,-1500,250,-1300,-1250,264
218,beat30Raw,3.58010635219197,0.872174110089434,1.24873070234611,1,-0.932547951391048,0.932547951391048,2.58290516589562,8.24216921766447,0.96551724137931,43.816091954023,1,-1500,-150,-1300,-1650,264
218,beat30Fixed,3.60602806055571,0.943507512409727,0.966888037645194,1,-0.940854149959594,0.940854149959594,2.77692222058749,8.87127431345874,0.96551724137931,43.816091954023,1,-1500,-150,-1300,-1650,264
218,beat30Smoothed,3.47331458092362,0.965137981904998,1.02684868789469,1,-0.964107977976869,0.964107977976869,3.63114869880131,11.2008806805248,0.96551724137931,43.816091954023,1,-1500,-150,-1300,-1650,264
219,currentSpO2,2.15183978505315,0.99350356202588,0.917942394190514,1,-0.521769969757449,0.521769969757449,0.611626301725228,-4.27027693842775,0.861386138613861,NaN,NaN,-1500,-100,-1400,-1600,204
219,beat30Raw,5.22672527550142,0.926934705363203,0.96196578842508,1,-0.937419285419916,0.937419285419916,2.69216588015342,8.60203631620825,0.943298969072165,37.9948453608247,1,-1500,-500,-1400,-2000,204
219,beat30Fixed,5.20100297594736,0.930559112815713,0.932174574599075,1,-0.942025043031818,0.942025043031818,2.80746801988984,8.96629635751603,0.943298969072165,37.9948453608247,1,-1500,-500,-1400,-2000,204
219,beat30Smoothed,2.73140309434291,0.987556834634513,0.95114407112265,1,-0.993852185658427,0.993852185658427,8.97666350899931,19.0622989184539,0.798969072164949,37.9948453608247,1,-1500,-500,-1400,-2000,204
220,currentSpO2,2.11882123044202,0.989502341370444,1.01566860448433,1,-0.263051494860162,0.263051494860162,0.272653875054694,-11.2877665116861,1,NaN,NaN,-1500,-50,-1350,-1550,158
220,beat30Raw,6.00552687246238,0.883803352967811,1.11072136346718,1,-0.87023828344996,0.87023828344996,1.76651131070524,4.94232845003543,0.933333333333333,35.2933333333333,1,-1500,-400,-1350,-1900,158
220,beat30Fixed,5.92815591185859,0.885090404539398,1.05989608891507,1,-0.88870895729741,0.88870895729741,1.93841575838958,5.74893863498911,0.933333333333333,35.2933333333333,1,-1500,-400,-1350,-1900,158
220,beat30Smoothed,3.30552404398026,0.986191767552857,1.05963357482754,1,-0.990333206739854,0.990333206739854,7.13965508865116,17.0735446368857,0.933333333333333,35.2933333333333,1,-1500,-400,-1350,-1900,158
221,currentSpO2,5.17082427947572,0.996399750961226,0.613054737656628,1,0.16011556803257,-0.16011556803257,0.162208335337763,-15.7985366525362,0.643410852713178,NaN,NaN,-1200,600,-1150,-600,141
221,beat30Raw,6.41572011447048,0.868089696751764,0.894830233577767,0.96551724137931,-0.809310508840341,0.809310508840341,1.37782876387858,2.78390493889814,0.935251798561151,41.3021582733813,1,-1200,-100,-1150,-1300,141
221,beat30Fixed,6.39180507887868,0.867223004706892,0.84114855369024,0.96551724137931,-0.857037638862804,0.857037638862804,1.66333101727558,4.41957372366409,0.935251798561151,41.3021582733813,1,-1200,-100,-1150,-1300,141
221,beat30Smoothed,2.88237284879432,0.986972029084163,0.836182407324555,1,-0.983645965322994,0.983645965322994,5.46127789673502,14.7458855228291,0.589928057553957,41.3021582733813,1,-1200,-100,-1150,-1300,141
222,currentSpO2,2.14010547902166,0.994647899170074,0.963521339445207,1,-0.591123160854904,0.591123160854904,0.732874855830889,-2.6994035648069,1,NaN,NaN,-1500,300,-1500,-1200,242
222,beat30Raw,4.10748981654184,0.941809989791739,0.992633875168786,0.957575757575758,-0.934600240013996,0.934600240013996,2.62749677905921,8.39084384633541,0.958333333333333,40.8083333333333,1,-1500,-100,-1500,-1600,242
222,beat30Fixed,3.52406003600772,0.956130045484755,0.949552443870363,1,-0.956445104565302,0.956445104565302,3.27648155617109,10.3081545517448,0.741666666666667,40.8083333333333,1,-1500,-100,-1500,-1600,242
222,beat30Smoothed,1.4540706307178,0.993262819941636,0.959396558810519,1,-0.994081811589786,0.994081811589786,9.15074067659309,19.229124960539,0.741666666666667,40.8083333333333,1,-1500,-100,-1500,-1600,242
223,currentSpO2,1.70170203512621,0.577764842246033,0.348837465058287,NaN,-0.303503167403137,0.303503167403137,0.318527996175791,-9.93704780972354,1,NaN,NaN,-1500,-1000,-1300,-2500,77
223,beat30Raw,2.22479640696886,0.208732356059954,4.73726648942054,NaN,-0.445718740950727,0.445718740950727,0.497913489367063,-6.05692215501611,0.826086956521739,30.3260869565217,1,-1500,-1550,-1300,-3050,77
223,beat30Fixed,2.03150697006613,0.463799861118717,0.456079502728556,NaN,-0.464085895685247,0.464085895685247,0.523923040461581,-5.61465004496364,0.826086956521739,30.3260869565217,1,-1500,-1550,-1300,-3050,77
223,beat30Smoothed,2.06791809121413,0.625185791260001,0.288380104546372,NaN,-0.624693360491546,0.624693360491546,0.799996456797951,-1.93823873007378,0.826086956521739,30.3260869565217,1,-1500,-1550,-1300,-3050,77
224,currentSpO2,4.1517426327139,0.978409500826492,0.945356325781072,1,-0.821974688813912,0.821974688813912,1.44326605714773,3.18692795936502,1,NaN,NaN,-1500,550,-1400,-950,369
224,beat30Raw,3.75027358264754,0.975090463674395,0.933492864826484,1,-0.974017397850992,0.974017397850992,4.30080651208338,12.6709980925387,0.980926430517711,41.4386920980926,1,-1500,100,-1400,-1400,369
224,beat30Fixed,3.75981255554029,0.98383996484064,0.90245380552118,1,-0.973888727944393,0.973888727944393,4.28976983359556,12.6486798172097,0.773841961852861,41.4386920980926,1,-1500,100,-1400,-1400,369
224,beat30Smoothed,3.53623251318236,0.987401761454082,0.924737145028146,1,-0.980046820300295,0.980046820300295,4.93063707718817,13.8580607434839,0.773841961852861,41.4386920980926,1,-1500,100,-1400,-1400,369
225,currentSpO2,2.52700864815027,0.968492009078686,0.681121811113915,1,-0.334754017365341,0.334754017365341,0.355249969276274,-8.98931901920734,1,NaN,NaN,-1500,250,-500,-1250,207
225,beat30Raw,4.18106595637459,0.635829582968219,1.58580688566542,0.953846153846154,-0.916222931363134,0.916222931363134,2.2867335336087,7.18431120970705,0.953846153846154,39.2564102564103,1,-1500,-600,-500,-2100,207
225,beat30Fixed,6.85327304696614,0.79434174646512,0.969537166927948,0.953846153846154,-0.794962120793844,0.794962120793844,1.31039353217118,2.34803481669534,0,39.2564102564103,1,-1500,-600,-500,-2100,207
225,beat30Smoothed,7.06854821532043,0.857102368477415,0.972165801249252,0.917948717948718,-0.840200821702146,0.840200821702146,1.5493988200366,3.8032644177724,0,39.2564102564103,1,-1500,-600,-500,-2100,207
226,currentSpO2,1.87706025556877,0.965315533268608,0.897765241664632,1,-0.563399394848748,0.563399394848748,0.681929125492007,-3.32521520502919,1,NaN,NaN,-1500,50,-1450,-1450,194
226,beat30Raw,2.56020229530301,0.924695176320882,0.907838259830284,1,-0.9330068837044,0.9330068837044,2.59270471558126,8.27506115146066,0.946808510638298,37.0691489361702,0.999296134794455,-1500,-300,-1450,-1800,194
226,beat30Fixed,2.39811892958267,0.938957140188762,0.824182892605332,1,-0.942568837612069,0.942568837612069,2.82196137689284,9.0110213087273,0.867021276595745,37.0691489361702,0.999296134794455,-1500,-300,-1450,-1800,194
226,beat30Smoothed,2.05585164596106,0.958130760741182,0.862090512518262,1,-0.962393270746091,0.962393270746091,3.54263796896677,10.986535459232,0.867021276595745,37.0691489361702,0.999296134794455,-1500,-300,-1450,-1800,194
227,currentSpO2,3.78901692208736,0.890453016377666,0.421525876491219,1,-0.260959189743178,0.260959189743178,0.270326031716417,-11.362242616441,1,NaN,NaN,-1500,250,-1450,-1250,200
227,beat30Raw,4.39091409404561,0.603871544230863,0.647067306069674,1,-0.527208614033786,0.527208614033786,0.620438211723788,-4.14602925167086,0.979381443298969,39.8505154639175,1,-1500,300,-1450,-1200,200
227,beat30Fixed,2.80128900036566,0.899409215955081,0.642111182549187,1,-0.903157208615766,0.903157208615766,2.10374148418716,6.45984741981536,0.149484536082474,39.8505154639175,1,-1500,300,-1450,-1200,200
227,beat30Smoothed,2.44006367252537,0.924354885105989,0.726185510908908,1,-0.92638105463769,0.92638105463769,2.45993578179152,7.8184753942821,0.149484536082474,39.8505154639175,1,-1500,300,-1450,-1200,200
228,currentSpO2,4.0460285200354,0.948377665609216,0.590410440050992,1,-0.0873795725299761,0.0873795725299761,0.158027823168614,-16.0253288451141,0.886363636363636,NaN,NaN,-1750,500,-1650,-1250,274
228,beat30Raw,4.67704810748896,0.502089901064802,1.10513782723186,0.96734693877551,-0.461368353599552,0.461368353599552,0.520022362127566,-5.67955960654289,0.96734693877551,42.330612244898,1,-1750,-1450,-1650,-3200,274
228,beat30Fixed,11.6491649747508,0.784250362411125,0.328157112645993,0.657142857142857,-0.784243471797458,0.784243471797458,1.2639848874638,2.03483762876409,0,42.330612244898,1,-1750,-1450,-1650,-3200,274
228,beat30Smoothed,11.6195909622734,0.873337404301313,0.325066196261336,0.657142857142857,-0.874551435628698,0.874551435628698,1.80344884691767,5.12207656972254,0,42.330612244898,1,-1750,-1450,-1650,-3200,274
230,currentSpO2,2.14701527420116,0.984881090542442,0.971672147425491,1,-0.0514725781774472,0.0514725781774472,0.0515409003697054,-25.7569599802815,1,NaN,NaN,-1500,-50,-1450,-1550,149
230,beat30Raw,3.79623241629113,0.834152351321191,1.03524230195201,0.934579439252336,-0.751878305058004,0.751878305058004,1.1404157770384,1.14126433818723,0.928571428571429,35.9571428571429,1,-1500,-450,-1450,-1950,149
230,beat30Fixed,3.7993898424396,0.829282019133403,0.919141594757392,0.934579439252336,-0.810080189177732,0.810080189177732,1.38163704557306,2.80787938742813,0.928571428571429,35.9571428571429,1,-1500,-450,-1450,-1950,149
230,beat30Smoothed,1.90950216065758,0.984930020591485,0.909956327777812,1,-0.985956936853092,0.985956936853092,5.90394236203212,15.4228421796412,0.928571428571429,35.9571428571429,1,-1500,-450,-1450,-1950,149
231,currentSpO2,2.05222233126711,0.987246437187432,0.998892313403161,1,-0.502648617296237,0.502648617296237,0.581438933928165,-4.70991781305828,1,NaN,NaN,-1500,-50,-1350,-1550,213
231,beat30Raw,2.76133709639872,0.939939039730526,1.02130522599019,1,-0.942973545790679,0.942973545790679,2.83287806044722,9.04455761949701,0.950738916256158,37.2610837438424,1,-1500,-500,-1350,-2000,213
231,beat30Fixed,2.64436004568533,0.952042668193631,0.946906541531148,1,-0.949947998570627,0.949947998570627,3.04072813876373,9.6595518615303,0.950738916256158,37.2610837438424,1,-1500,-500,-1350,-2000,213
231,beat30Smoothed,1.87447156658399,0.990891299684453,0.946730976133867,1,-0.989938292457766,0.989938292457766,6.99604306701344,16.8970494858547,0.950738916256158,37.2610837438424,1,-1500,-500,-1350,-2000,213
1001,currentSpO2,3.17722773906027,0.212013156300182,1.06478594850786,0.44,-0.123711761465858,0.123711761465858,0.124669447857092,-18.0847992789106,0.996729072519905,NaN,NaN,0,850,-200,850,23252
1001,beat30Raw,3.02045876888704,0.235749967499567,0.830991775920064,0.44,-0.230450257189733,0.230450257189733,0.236824602901961,-12.5114636445962,1,29.8832236134418,1,0,550,-200,550,23252
1001,beat30Fixed,3.01870245964623,0.237368731286437,0.831303312014446,0.44,-0.232103508610116,0.232103508610116,0.23861995901546,-12.4458646644658,0.984294995912396,29.8832236134418,1,0,550,-200,550,23252
1001,beat30Smoothed,3.01720700226785,0.243237722983751,0.830108000214459,0.44,-0.23808443813857,0.23808443813857,0.245133380977064,-12.2119508955606,0.984294995912396,29.8832236134418,1,0,550,-200,550,23252
1002,currentSpO2,1.34072058511513,0.47270336883159,0.760467465060374,0.902285525008281,-0.262378520810087,0.262378520810087,0.271904693199581,-11.3116659245214,0.998355838522354,NaN,NaN,-1500,-500,-1550,-2000,28596
1002,beat30Raw,1.30083651779539,0.436742184219857,0.647702153784874,0.903610467042067,-0.444743070215708,0.444743070215708,0.496554458959263,-6.08066227757171,0.997830347144457,29.122305431131,1,-1500,-1000,-1550,-2500,28596
1002,beat30Fixed,1.28399942005717,0.447231060415604,0.605998266899887,0.901954289499834,-0.449530053962817,0.449530053962817,0.503243661888864,-5.96443372268683,0.956256998880179,29.122305431131,1,-1500,-1000,-1550,-2500,28596
1002,beat30Smoothed,1.26534318289671,0.468318311382181,0.602110269580216,0.920172242464392,-0.469922018655187,0.469922018655187,0.532364104438643,-5.47582470518603,0.956256998880179,29.122305431131,1,-1500,-1000,-1550,-2500,28596
1003,currentSpO2,1.57169448248764,0.146348730039532,0.448317856023275,0.909769144144144,0.0458136144719443,-0.0458136144719443,0.0466226716556263,-26.6280568676812,0.994824474786339,NaN,NaN,-1500,-450,-1750,-1950,29378
1003,beat30Raw,1.5667933446043,0.154268666735274,0.392564656979062,0.887528153153153,-0.15747929305782,0.15747929305782,0.159469102350784,-15.946469008052,0.999659400544959,29.9721049046322,1,-1500,-900,-1750,-2400,29378
1003,beat30Fixed,1.57403520140095,0.131574695522243,0.37348737939676,0.886261261261261,-0.137341126487964,0.137341126487964,0.13865504829417,-17.1612862712517,0.950613079019074,29.9721049046322,1,-1500,-900,-1750,-2400,29378
1003,beat30Smoothed,1.56004279579769,0.159121106069409,0.37020926801776,0.915259009009009,-0.165290950123294,0.165290950123294,0.167596262046362,-15.5147134361604,0.950613079019074,29.9721049046322,1,-1500,-900,-1750,-2400,29378
1004,currentSpO2,4.05341711297245,0.249194041719798,1.07061156374679,NaN,-0.0741939944560298,0.0741939944560298,0.0743990510858595,-22.5686520715564,0.998056946416561,NaN,NaN,0,850,-250,850,13398
1004,beat30Raw,3.88890495218549,0.165578382372114,1.10932282173554,NaN,-0.168310121962793,0.168310121962793,0.170745967998597,-15.3529908594159,0.999925311823138,33.4163865860034,1,0,450,-250,450,13398
1004,beat30Fixed,3.8902731931696,0.16871292491674,1.10262039138807,NaN,-0.171805455081836,0.171805455081836,0.174398605792265,-15.1691398260445,0.956307416535962,33.4163865860034,1,0,450,-250,450,13398
1004,beat30Smoothed,3.88881181446879,0.182060091019505,1.09777693828994,NaN,-0.185289373006245,0.185289373006245,0.188554380232716,-14.4912674843343,0.956307416535962,33.4163865860034,1,0,450,-250,450,13398
1005,currentSpO2,1.1136870717231,0.429850859953792,0.44447997085708,0.73164861612515,-0.0741911128413414,0.0741911128413414,0.0739195232441884,-22.6248168566156,0.994465081723626,NaN,NaN,-1500,-750,-1850,-2250,26935
1005,beat30Raw,1.15245641482088,0.391805324945855,0.38587448848473,0.68531889290012,-0.399167931488347,0.399167931488347,0.435355634838674,-7.22311660127995,0.999591245215711,30.9804912489317,1,-1500,-1200,-1850,-2700,26935
1005,beat30Fixed,1.14605892758083,0.403100425204255,0.346507088424452,0.681107099879663,-0.402046231025831,0.402046231025831,0.439097560430151,-7.14877951546937,0.941696703950058,30.9804912489317,1,-1500,-1200,-1850,-2700,26935
1005,beat30Smoothed,1.13012223510394,0.441328572315719,0.341543780708466,0.750300842358604,-0.439949410574018,0.439949410574018,0.489909085531158,-6.19769012659257,0.941696703950058,30.9804912489317,1,-1500,-1200,-1850,-2700,26935
1006,currentSpO2,2.82127074612406,0.485870476696728,0.987127806575341,1,-0.174377527965133,0.174377527965133,0.187149935931661,-14.5562063444917,0.996199220099709,NaN,NaN,-1500,-800,-1950,-2300,20275
1006,beat30Raw,2.67977730886887,0.372124891942892,0.885959233967462,1,-0.436793045386531,0.436793045386531,0.485561899684296,-6.27510796279249,0.997876648066762,33.2662584563725,1,-1500,-1200,-1950,-2700,20275
1006,beat30Fixed,2.67442907698843,0.426376527338179,0.784709074479705,1,-0.435220280397764,0.435220280397764,0.483404063106175,-6.31379407165072,0.994074366697941,33.2662584563725,1,-1500,-1200,-1950,-2700,20275
1006,beat30Smoothed,2.66834245812588,0.453246208600348,0.781109980723525,1,-0.461561092739912,0.461561092739912,0.520298398418275,-5.67495021893016,0.994074366697941,33.2662584563725,1,-1500,-1200,-1950,-2700,20275
1007,currentSpO2,4.05232383450447,0.079249063821126,1.45082073670113,0.96875,-0.0246641104582939,0.0246641104582939,0.0267733645449307,-31.4459409726149,0.992924650105872,NaN,NaN,-1500,-850,-1700,-2350,19380
1007,beat30Raw,3.75906259350188,0.0384585680369047,1.3556704906613,1,-0.0808629249697812,0.0808629249697812,0.0811286023507487,-21.8165201159874,0.995918156453446,30.6357342151493,0.999947806224078,-1500,-1300,-1700,-2800,19380
1007,beat30Fixed,3.76088536333517,0.0763093040483325,1.28150872908578,1,-0.0807960376420967,0.0807960376420967,0.0810610541256047,-21.8237550590228,0.967241913816265,30.6357342151493,0.999947806224078,-1500,-1300,-1700,-2800,19380
1007,beat30Smoothed,3.75898913413996,0.0803061976140872,1.28153227705585,1,-0.0857838547861772,0.0857838547861772,0.0861012436887449,-21.2998115067554,0.967241913816265,30.6357342151493,0.999947806224078,-1500,-1300,-1700,-2800,19380
1008,currentSpO2,2.59781747644952,0.594692778208232,1.4092108768192,1,-0.31047203541093,0.31047203541093,0.344360323039138,-9.25973786897992,0.998535575417866,NaN,NaN,-1500,-450,-1550,-1950,19812
1008,beat30Raw,2.47110745760743,0.558335515728287,1.12882641088942,1,-0.569228781709667,0.569228781709667,0.692341523291764,-3.19359241455167,0.99949479640295,32.9423057492169,1,-1500,-900,-1550,-2400,19812
1008,beat30Fixed,2.46948326583955,0.568256254509178,1.1086746613095,1,-0.569033227775092,0.569033227775092,0.691989752401931,-3.19800673827083,0.995049004748914,32.9423057492169,1,-1500,-900,-1550,-2400,19812
1008,beat30Smoothed,2.46439269427017,0.589536842373122,1.10732441765981,1,-0.59048109683574,0.59048109683574,0.73165234091714,-2.71390467084532,0.995049004748914,32.9423057492169,1,-1500,-900,-1550,-2400,19812
1009,currentSpO2,2.83669667003818,0.559409087523039,0.573424985816257,0.143587477909619,-0.269173166945384,0.269173166945384,0.295824006212424,-10.5793317154675,0.998268433133331,NaN,NaN,-1500,-300,-1650,-1800,24839
1009,beat30Raw,2.62144087799652,0.510355144610699,0.423525911748203,0.149857909693716,-0.530548205977342,0.530548205977342,0.625901283985777,-4.06988315051689,0.999476313245247,27.46169029971,0.999950786872919,-1500,-750,-1650,-2250,24839
1009,beat30Fixed,2.61463492720442,0.526350784601499,0.413864980829279,0.149794758446479,-0.530391069038229,0.530391069038229,0.62564332794929,-4.07346365044436,0.995931356751531,27.46169029971,0.999950786872919,-1500,-750,-1650,-2250,24839
1009,beat30Smoothed,2.60710736251866,0.552435396736276,0.41237757442965,0.152131354594253,-0.556843776592893,0.556843776592893,0.670397562331792,-3.47335147072315,0.995931356751531,27.46169029971,0.999950786872919,-1500,-750,-1650,-2250,24839
1010,currentSpO2,1.5727489386789,0.877530882105061,0.973701042456623,0.902373788030759,-0.0104171473009404,0.0104171473009404,0.0104024989487095,-39.6572463885079,0.997711561382598,NaN,NaN,-1500,-350,-1550,-1850,20982
1010,beat30Raw,1.93909624530928,0.740703048080776,0.830077290166963,0.744567034436643,-0.728470488045737,0.728470488045737,1.06334075203808,0.53344916658661,0.999332284065436,31.1137024848572,0.999953171419912,-1500,-750,-1550,-2250,20982
1010,beat30Fixed,1.93672740650938,0.739367927917694,0.806213241068088,0.744232698094283,-0.725831893250107,0.725831893250107,1.05518433592265,0.466566710795567,0.820956741546239,31.1137024848572,0.999953171419912,-1500,-750,-1550,-2250,20982
1010,beat30Smoothed,1.38580420204873,0.885104726423345,0.802503423293617,0.899364760949515,-0.877075849876423,0.877075849876423,1.82590271629227,5.22955269394416,0.820956741546239,31.1137024848572,0.999953171419912,-1500,-750,-1550,-2250,20982
1011,currentSpO2,2.52721384292711,0.416601599948624,0.751816692666047,0.598425196850394,-0.13117033683321,0.13117033683321,0.150611569315179,-16.4428333254212,0.99279045456184,NaN,NaN,-1500,-250,-1550,-1750,27746
1011,beat30Raw,2.47156404932413,0.360338964670955,0.635061958111079,0.681102362204724,-0.365021654778816,0.365021654778816,0.392075226186882,-8.13261196655598,0.999639405740661,35.7657219097072,0.999940574755833,-1500,-700,-1550,-2200,27746
1011,beat30Fixed,2.45472150495111,0.365929848717917,0.598082543193174,0.681102362204724,-0.368155996353957,0.368155996353957,0.395967129466169,-8.04681729583174,0.860630318765325,35.7657219097072,0.999940574755833,-1500,-700,-1550,-2200,27746
1011,beat30Smoothed,2.44452408077614,0.39131164851394,0.59076793400553,0.62992125984252,-0.392938180359238,0.392938180359238,0.427308811753901,-7.38516302562955,0.860630318765325,35.7657219097072,0.999940574755833,-1500,-700,-1550,-2200,27746
1012,currentSpO2,2.55531953649256,0.685244635114275,0.782564487862405,0.454208129532805,0.00206207293721361,-0.00206207293721361,0.00245472401253001,-52.1999465805802,0.97514061225366,NaN,NaN,-1500,100,-1100,-1400,23293
1012,beat30Raw,2.89698982472619,0.454385862950331,0.803618147009757,0.393525543753161,-0.603797073070352,0.603797073070352,0.75745607898866,-2.41285089231183,0.938203212230525,26.4134673194194,0.99992285064192,-1500,-350,-1100,-1850,23293
1012,beat30Fixed,2.38084773973606,0.595242939396925,0.651264000539397,0.424043163041646,-0.586163590399413,0.586163590399413,0.723486616392265,-2.81138996763,0.848320879498411,26.4134673194194,0.99992285064192,-1500,-350,-1100,-1850,23293
1012,beat30Smoothed,2.184941255303,0.698499988883436,0.645768542394253,0.470072500421514,-0.693413890884749,0.693413890884749,0.962353746927119,-0.333305168414975,0.848320879498411,26.4134673194194,0.99992285064192,-1500,-350,-1100,-1850,23293
1013,currentSpO2,2.37234365072016,0.532015105574268,1.58126284866203,0.994892747701736,-0.010827134556275,0.010827134556275,0.00984567429400415,-40.1350907055257,0.901901698090158,NaN,NaN,0,1150,-50,1150,24580
1013,beat30Raw,2.17295368818231,0.42611923956642,1.24028172767195,0.807967313585291,-0.605492735801323,0.605492735801323,0.76081183986885,-2.37445474923362,0.947325571928682,27.5675730684686,0.999095659396834,0,700,-50,700,24580
1013,beat30Fixed,1.82866417824874,0.609229365592871,0.874668114125171,0.846782431052094,-0.597767389404416,0.597767389404416,0.745653058473412,-2.54926392879058,0.690751445086705,27.5675730684686,0.999095659396834,0,700,-50,700,24580
1013,beat30Smoothed,1.67061542422055,0.733608503652,0.850962929165423,0.992849846782431,-0.718378353919168,0.718378353919168,1.03266825046673,0.279216495602436,0.690751445086705,27.5675730684686,0.999095659396834,0,700,-50,700,24580
1014,currentSpO2,2.03837445900667,0.414129517585863,1.80942199601858,0.977628635346756,-0.0454006759693938,0.0454006759693938,0.22077530046795,-13.1209903100247,0.874275045682053,NaN,NaN,-1500,100,-1300,-1400,25176
1014,beat30Raw,1.94355267662225,0.24870142741887,1.20755207992176,0.975391498881432,-0.267203286860809,0.267203286860809,0.277285330564469,-11.1414621124761,0.998688863284199,33.3590130716357,0.99993154955971,-1500,-350,-1300,-1850,25176
1014,beat30Fixed,1.791086577398,0.257709077434958,0.921954514243297,0.975391498881432,-0.280024897779068,0.280024897779068,0.291694808464447,-10.7014260062049,0.658786602566649,33.3590130716357,0.99993154955971,-1500,-350,-1300,-1850,25176
1014,beat30Smoothed,1.77521916300463,0.269804819652286,0.908934116644535,0.979865771812081,-0.291678329606107,0.291678329606107,0.304938116180893,-10.3157657394936,0.658786602566649,33.3590130716357,0.99993154955971,-1500,-350,-1300,-1850,25176
1016,currentSpO2,1.56911256431486,0.454743769494939,0.881175679143145,0.797194054729824,-0.24057849217086,0.24057849217086,0.247858164051763,-12.115935431143,0.999681731381286,NaN,NaN,-1500,-450,-1850,-1950,22003
1016,beat30Raw,1.63307767635563,0.42107707406373,0.704006608319581,0.793105844742512,-0.427608604850573,0.427608604850573,0.473037215293531,-6.50209381269267,0.999545144416648,30.3266317944053,0.99992106174472,-1500,-900,-1850,-2400,22003
1016,beat30Fixed,1.6251339048459,0.426374812430308,0.696601854837529,0.793105844742512,-0.425570738537631,0.425570738537631,0.470282800182024,-6.5528180913609,0.988492153741187,30.3266317944053,0.99992106174472,-1500,-900,-1850,-2400,22003
1016,beat30Smoothed,1.60589366990948,0.448708903588794,0.694828935458214,0.799569115296407,-0.448457236208061,0.448457236208061,0.501739856985286,-5.99042796624035,0.988492153741187,30.3266317944053,0.99992106174472,-1500,-900,-1850,-2400,22003
1017,currentSpO2,2.20096364670167,0.366205454510402,1.28096020110266,0.692307692307692,-0.216704137924547,0.216704137924547,0.224979000940481,-12.9571603223302,0.995998950544405,NaN,NaN,0,1100,100,1100,15268
1017,beat30Raw,2.08278012754918,0.359691199275738,1.08591225323032,0.969230769230769,-0.359486742111165,0.359486742111165,0.385239959119813,-8.28537343795006,1,32.5256637168142,1,0,650,100,650,15268
1017,beat30Fixed,2.07489572683929,0.361649775313349,1.08444444878545,0.969230769230769,-0.361554892933854,0.361554892933854,0.387788462826926,-8.22810231696354,0.94939364142904,32.5256637168142,1,0,650,100,650,15268
1017,beat30Smoothed,2.06815193380224,0.375397422430965,1.08386828287488,0.984615384615385,-0.375356349357249,0.375356349357249,0.404967324968537,-7.851600333649,0.94939364142904,32.5256637168142,1,0,650,100,650,15268
1018,currentSpO2,1.08522602520209,0.684215841220408,0.761360473635673,0.96875,-0.327068379295401,0.327068379295401,0.346103857951518,-9.21587119367724,0.998867201115371,NaN,NaN,0,950,-100,950,11495
1018,beat30Raw,1.13125463007182,0.620164249301234,0.615164787844811,0.6875,-0.626216134137413,0.626216134137413,0.803202116760175,-1.90350311314317,0.999912929908576,33.9877231171093,1,0,500,-100,500,11495
1018,beat30Fixed,1.11606684162734,0.641664896461551,0.595444024500983,0.6875,-0.643017043990933,0.643017043990933,0.839610206978331,-1.51844580847637,0.956987374836744,33.9877231171093,1,0,500,-100,500,11495
1018,beat30Smoothed,1.1034298550782,0.672032427050639,0.592695859539343,1,-0.672937272796878,0.672937272796878,0.909744059181298,-0.821615435322687,0.956987374836744,33.9877231171093,1,0,500,-100,500,11495
1019,currentSpO2,1.28158629654583,0.270926207074547,0.832908388455298,0.41958041958042,-0.142329446762377,0.142329446762377,0.143793357849418,-16.8452234912977,0.999417249417249,NaN,NaN,0,-6000,0,-6000,6984
1019,beat30Raw,1.19619418283156,0.284677671530651,0.594433165281202,0.454545454545455,-0.276240666578489,0.276240666578489,0.287424798214809,-10.8295152972267,1,32.3204189984216,1,0,750,0,750,6984
1019,beat30Fixed,1.17361029449355,0.317838711146341,0.563934924691429,0.454545454545455,-0.311875773136103,0.311875773136103,0.328247826785956,-9.67596281081638,0.844740995838714,32.3204189984216,1,0,750,0,750,6984
1019,beat30Smoothed,1.16551576544528,0.331321442275179,0.562157905542587,0.433566433566434,-0.325308612254621,0.325308612254621,0.344020614799892,-9.26831064708157,0.844740995838714,32.3204189984216,1,0,750,0,750,6984
1020,currentSpO2,2.14441794640394,0.662504646968259,1.1809280385081,0.958372310570627,0.00452181291375084,-0.00452181291375084,0.00482028070131368,-46.3385534116463,0.935007595898215,NaN,NaN,0,1150,0,1150,21087
1020,beat30Raw,2.19114543824632,0.575727152016291,1.01534758119575,0.804022450888681,-0.632878217039898,0.632878217039898,0.817406662665358,-1.75123653368726,0.950265755504935,29.9953967350038,1,0,750,0,750,21087
1020,beat30Fixed,2.07728558526535,0.638474001794381,0.820978859737935,0.805425631431244,-0.628968951626882,0.628968951626882,0.809035684060274,-1.84064645159403,0.58997722095672,29.9953967350038,1,0,750,0,750,21087
1020,beat30Smoothed,1.70868975211866,0.792715872816279,0.816632485880036,0.963985032740879,-0.787137250366911,0.787137250366911,1.2762086323259,2.11843355762884,0.58997722095672,29.9953967350038,1,0,750,0,750,21087
1021,currentSpO2,3.73564797378799,0.577331950469787,1.21775991627801,1,-0.194495258565548,0.194495258565548,0.198281754367214,-14.0543449435494,0.998976907337036,NaN,NaN,-1500,-500,-950,-2000,6852
1021,beat30Raw,3.28022192607884,0.51523402396983,1.13194614016823,1,-0.528499715545634,0.528499715545634,0.62254549858382,-4.11657805534973,0.998536299765808,30.8962236533958,0.99984885913099,-1500,-1000,-950,-2500,6852
1021,beat30Fixed,3.2766324909803,0.536259079135656,1.05509720958763,1,-0.530460267641346,0.530460267641346,0.625756913331445,-4.07188687258534,0.997072599531616,30.8962236533958,0.99984885913099,-1500,-1000,-950,-2500,6852
1021,beat30Smoothed,3.27037208593048,0.564124044428771,1.05771833790421,1,-0.558999434919714,0.558999434919714,0.674169059486799,-3.42462365992874,0.997072599531616,30.8962236533958,0.99984885913099,-1500,-1000,-950,-2500,6852
1022,currentSpO2,2.10451674185966,0.398916708845439,0.708219649664564,0.971014492753623,-0.00635664590389625,0.00635664590389625,0.00635677433411653,-43.9352641155391,0.996911156483954,NaN,NaN,-1500,-300,-1550,-1800,19107
1022,beat30Raw,2.00490200569844,0.373186348279952,0.566432937659163,0.967391304347826,-0.385653755558917,0.385653755558917,0.417987793728385,-7.57672801013609,0.999266746975331,32.1530403812916,1,-1500,-700,-1550,-2200,19107
1022,beat30Fixed,1.9971307251053,0.385717798393407,0.548489155920586,0.967391304347826,-0.388403253865742,0.388403253865742,0.421495036801903,-7.50415069847099,0.955271565495208,32.1530403812916,1,-1500,-700,-1550,-2200,19107
1022,beat30Smoothed,1.98543464784828,0.415595176629119,0.546334978373774,0.971014492753623,-0.417751173964627,0.417751173964627,0.459794064300251,-6.74873279088184,0.955271565495208,32.1530403812916,1,-1500,-700,-1550,-2200,19107
1023,currentSpO2,1.20153729952584,0.846367587170089,1.00663268179157,0.935104752171691,0.00447859889601957,-0.00447859889601957,0.00167794260414889,-55.5044579753638,0.953568089747585,NaN,NaN,-1500,-250,-1400,-1750,22468
1023,beat30Raw,2.0087535791847,0.590837667994068,0.996985622326311,0.754726622381196,-0.645131688656955,0.645131688656955,0.844334297371999,-1.46971138125658,0.986015854636145,31.9299011312016,0.999911348271945,-1500,-700,-1400,-2200,22468
1023,beat30Fixed,1.57491393196186,0.704063792738005,0.726465110385865,0.747572815533981,-0.692417809109345,0.692417809109345,0.959696350064861,-0.357323138200002,0.798343279593836,31.9299011312016,0.999911348271945,-1500,-700,-1400,-2200,22468
1023,beat30Smoothed,1.22372445814916,0.850923628924247,0.714489290138604,0.945324476239142,-0.838712640913505,0.838712640913505,1.5401254318043,3.7511218468869,0.798343279593836,31.9299011312016,0.999911348271945,-1500,-700,-1400,-2200,22468
1024,currentSpO2,2.65663737145267,0.282704560579339,0.96138452721391,0.151123010560762,-0.0937282566739018,0.0937282566739018,0.0941426899909251,-20.5242679303346,0.999920499264618,NaN,NaN,-1500,-500,-1800,-2000,25167
1024,beat30Raw,2.23630789106146,0.261659293439483,0.694962559004609,0.149635579354455,-0.265966727319469,0.265966727319469,0.275904186547736,-11.1848341904319,0.999483060283124,28.7915540003181,1,-1500,-950,-1800,-2450,25167
1024,beat30Fixed,2.23275163054647,0.261742497127278,0.690181534329025,0.149635579354455,-0.266517308368967,0.266517308368967,0.276518962604009,-11.1655016219486,0.993160489899793,28.7915540003181,1,-1500,-950,-1800,-2450,25167
1024,beat30Smoothed,2.21525483978302,0.290246830438957,0.689461247023319,0.151123010560762,-0.296043497356828,0.296043497356828,0.309936571773517,-10.1745435005566,0.993160489899793,28.7915540003181,1,-1500,-950,-1800,-2450,25167
1025,currentSpO2,1.68247908282765,0.211869379075243,0.566396443080251,0.180892717306186,-0.0446410816726645,0.0446410816726645,0.0442980420356022,-27.0723093815999,0.995508029893465,NaN,NaN,-1500,-600,-1600,-2100,25168
1025,beat30Raw,1.68403457853043,0.175590932696664,0.404330033814397,0.231010180109632,-0.200581903891721,0.200581903891721,0.204742907000078,-13.7758226952907,0.997534497156718,29.7619596770987,0.999932758120741,-1500,-1050,-1600,-2550,25168
1025,beat30Fixed,1.66042732173597,0.209857258377413,0.374580518289143,0.233359436178543,-0.206476189730121,0.206476189730121,0.211023401043827,-13.5133876352136,0.893943611564004,29.7619596770987,0.999932758120741,-1500,-1050,-1600,-2550,25168
1025,beat30Smoothed,1.65628153300842,0.216191645364301,0.372768674993105,0.240407204385278,-0.212357032058219,0.212357032058219,0.217313486243323,-13.2582664198101,0.893943611564004,29.7619596770987,0.999932758120741,-1500,-1050,-1600,-2550,25168
1026,currentSpO2,1.23177151467848,0.386492640444639,0.457350059165523,0.583031988873435,-0.0931791170532208,0.0931791170532208,0.0935862770620476,-20.5757565793322,0.999363968834473,NaN,NaN,-1500,-550,-1600,-2050,25167
1026,beat30Raw,1.23417382370038,0.326223654642942,0.390573143566077,0.609457579972184,-0.346233485538616,0.346233485538616,0.36906047568775,-8.65804925646759,0.999403507376625,29.0107368672207,1,-1500,-1000,-1600,-2500,25167
1026,beat30Fixed,1.21919181515729,0.35959113180019,0.350370334112322,0.606675938803894,-0.360871565109222,0.360871565109222,0.386945698693872,-8.24699953229647,0.873583330019485,29.0107368672207,1,-1500,-1000,-1600,-2500,25167
1026,beat30Smoothed,1.20623605781238,0.388732946157911,0.345832735103426,0.64144645340751,-0.390020125751956,0.390020125751956,0.423563687707963,-7.4616255843237,0.873583330019485,29.0107368672207,1,-1500,-1000,-1600,-2500,25167
1027,currentSpO2,1.46113880397387,0.299523197454577,1.30722357181304,0.285714285714286,-0.0744977220707188,0.0744977220707188,0.0746549166560295,-22.5388317008371,0.99106270074012,NaN,NaN,-1500,-4650,-5450,-6150,21576
1027,beat30Raw,1.7476047386962,0.268999220552673,0.960216124678539,0.285714285714286,-0.425323950288988,0.425323950288988,0.469949831826492,-6.55897002953356,0.991246857249278,28.8953347611509,1,-1500,-4900,-5450,-6400,21576
1027,beat30Fixed,1.72776859468264,0.477796222286763,0.638652979242637,0.285714285714286,-0.476342593849174,0.476342593849174,0.541754113105154,-5.32395565490803,0.689496228699134,28.8953347611509,1,-1500,-4900,-5450,-6400,21576
1027,beat30Smoothed,1.72464449580736,0.48610636479805,0.634974345513815,0.285714285714286,-0.484612003966235,0.484612003966235,0.554013737902182,-5.12958931838675,0.689496228699134,28.8953347611509,1,-1500,-4900,-5450,-6400,21576
1028,currentSpO2,1.05863746829682,0.431903240105948,0.600938782938494,0,-0.0860589777446903,0.0860589777446903,0.0863794416475328,-21.2717921507529,1,NaN,NaN,-1500,-150,-1400,-1650,10586
1028,beat30Raw,0.730949690846131,0.378679349163001,0.475673639448071,0,-0.387537337143824,0.387537337143824,0.420389056968728,-7.52697194992404,0.998959712502364,37.0400037828636,1,-1500,-600,-1400,-2100,10586
1028,beat30Fixed,0.727064004490243,0.381372844706054,0.424165620239432,0,-0.382452646683448,0.382452646683448,0.413920948146053,-7.66165187623602,0.956213353508606,37.0400037828636,1,-1500,-600,-1400,-2100,10586
1028,beat30Smoothed,0.71510708098346,0.414581183222975,0.417422337404201,0,-0.415344983708398,0.415344983708398,0.456591660054837,-6.80944050891929,0.956213353508606,37.0400037828636,1,-1500,-600,-1400,-2100,10586
