dataID,featureName,spo2Rmse,spo2Corr,spo2StdRatio,lowRecall,rSpO2Corr,rTrackingCorr,rSnr,rSnrDb,reliableRatio,meanBeatCount,meanBeatValidRatio,baseTimeOffset,spo2TimeOffset,prTimeOffset,totalSpo2Offset,windowCount
1001,currentSpO2,3.17722773906027,0.212013156300182,1.06478594850786,0.44,-0.123711761465858,0.123711761465858,0.124669447857092,-18.0847992789106,0.996729072519905,NaN,NaN,0,850,-200,850,23252
1001,beat30Raw,2.20620771524211,0.258953835333328,0.51756053425791,0.35,-0.230450257189733,0.230450257189733,0.236824602901961,-12.5114636445962,1,29.8832236134418,1,0,550,-200,550,23252
1001,beat30Fixed,2.20517981491474,0.260218197405961,0.517602833108591,0.35,-0.232103508610116,0.232103508610116,0.23861995901546,-12.4458646644658,0.984294995912396,29.8832236134418,1,0,550,-200,550,23252
1001,beat30Smoothed,2.2037593029647,0.266491903332573,0.516980035138383,0.385,-0.23808443813857,0.23808443813857,0.245133380977064,-12.2119508955606,0.984294995912396,29.8832236134418,1,0,550,-200,550,23252
1002,currentSpO2,1.34072058511513,0.47270336883159,0.760467465060374,0.902285525008281,-0.262378520810087,0.262378520810087,0.271904693199581,-11.3116659245214,0.998355838522354,NaN,NaN,-1500,-500,-1550,-2000,28596
1002,beat30Raw,1.25334089325245,0.410905751467868,0.410584045115424,0.468035773434912,-0.444743070215708,0.444743070215708,0.496554458959263,-6.08066227757171,0.997830347144457,29.122305431131,1,-1500,-1000,-1550,-2500,28596
1002,beat30Fixed,1.23805616266828,0.440944220817028,0.354701665740877,0.465054653858894,-0.449530053962817,0.449530053962817,0.503243661888864,-5.96443372268683,0.956256998880179,29.122305431131,1,-1500,-1000,-1550,-2500,28596
1002,beat30Smoothed,1.22938284818308,0.459033283561666,0.352173180709398,0.494203378602186,-0.469922018655187,0.469922018655187,0.532364104438643,-5.47582470518603,0.956256998880179,29.122305431131,1,-1500,-1000,-1550,-2500,28596
1003,currentSpO2,1.57169448248764,0.146348730039532,0.448317856023275,0.909769144144144,0.0458136144719443,-0.0458136144719443,0.0466226716556263,-26.6280568676812,0.994824474786339,NaN,NaN,-1500,-450,-1750,-1950,29378
1003,beat30Raw,1.88151759991827,0.116740313595594,0.231580322614928,0.195664414414414,-0.15747929305782,0.15747929305782,0.159469102350784,-15.946469008052,0.999659400544959,29.9721049046322,1,-1500,-900,-1750,-2400,29378
1003,beat30Fixed,1.88864719969907,0.0860583862626964,0.211077187603757,0.180884009009009,-0.137341126487964,0.137341126487964,0.13865504829417,-17.1612862712517,0.950613079019074,29.9721049046322,1,-1500,-900,-1750,-2400,29378
1003,beat30Smoothed,1.88384124050486,0.108995677055889,0.20840936162837,0.186936936936937,-0.165290950123294,0.165290950123294,0.167596262046362,-15.5147134361604,0.950613079019074,29.9721049046322,1,-1500,-900,-1750,-2400,29378
1004,currentSpO2,4.05341711297245,0.249194041719798,1.07061156374679,NaN,-0.0741939944560298,0.0741939944560298,0.0743990510858595,-22.5686520715564,0.998056946416561,NaN,NaN,0,850,-250,850,13398
1004,beat30Raw,2.7652169689099,0.165464797883095,0.830297519838709,NaN,-0.168310121962793,0.168310121962793,0.170745967998597,-15.3529908594159,0.999925311823138,33.4163865860034,1,0,450,-250,450,13398
1004,beat30Fixed,2.76591304636135,0.168926332792085,0.824945768124565,NaN,-0.171805455081836,0.171805455081836,0.174398605792265,-15.1691398260445,0.956307416535962,33.4163865860034,1,0,450,-250,450,13398
1004,beat30Smoothed,2.76448449969348,0.181234376815211,0.821099591129278,NaN,-0.185289373006245,0.185289373006245,0.188554380232716,-14.4912674843343,0.956307416535962,33.4163865860034,1,0,450,-250,450,13398
1005,currentSpO2,1.1136870717231,0.429850859953792,0.44447997085708,0.73164861612515,-0.0741911128413414,0.0741911128413414,0.0739195232441884,-22.6248168566156,0.994465081723626,NaN,NaN,-1500,-750,-1850,-2250,26935
1005,beat30Raw,1.10771688880104,0.364081246127836,0.21282114629777,0.222021660649819,-0.399167931488347,0.399167931488347,0.435355634838674,-7.22311660127995,0.999591245215711,30.9804912489317,1,-1500,-1200,-1850,-2700,26935
1005,beat30Fixed,1.10865335366783,0.407257988646559,0.168308588615544,0.179903730445247,-0.402046231025831,0.402046231025831,0.439097560430151,-7.14877951546937,0.941696703950058,30.9804912489317,1,-1500,-1200,-1850,-2700,26935
1005,beat30Smoothed,1.101797375539,0.446455021544451,0.164720898549442,0.18531889290012,-0.439949410574018,0.439949410574018,0.489909085531158,-6.19769012659257,0.941696703950058,30.9804912489317,1,-1500,-1200,-1850,-2700,26935
1006,currentSpO2,2.82127074612406,0.485870476696728,0.987127806575341,1,-0.174377527965133,0.174377527965133,0.187149935931661,-14.5562063444917,0.996199220099709,NaN,NaN,-1500,-800,-1950,-2300,20275
1006,beat30Raw,1.94926286946581,0.295197737389002,0.5947016701605,1,-0.436793045386531,0.436793045386531,0.485561899684296,-6.27510796279249,0.997876648066762,33.2662584563725,1,-1500,-1200,-1950,-2700,20275
1006,beat30Fixed,1.94076080720883,0.383975386413181,0.468513888120923,1,-0.435220280397764,0.435220280397764,0.483404063106175,-6.31379407165072,0.994074366697941,33.2662584563725,1,-1500,-1200,-1950,-2700,20275
1006,beat30Smoothed,1.93625963273376,0.410427459940211,0.46569240419196,1,-0.461561092739912,0.461561092739912,0.520298398418275,-5.67495021893016,0.994074366697941,33.2662584563725,1,-1500,-1200,-1950,-2700,20275
1007,currentSpO2,4.05232383450447,0.079249063821126,1.45082073670113,0.96875,-0.0246641104582939,0.0246641104582939,0.0267733645449307,-31.4459409726149,0.992924650105872,NaN,NaN,-1500,-850,-1700,-2350,19380
1007,beat30Raw,2.71513134275874,0.0193755702928628,0.974578930194117,0.6875,-0.0808629249697812,0.0808629249697812,0.0811286023507487,-21.8165201159874,0.995918156453446,30.6357342151493,0.999947806224078,-1500,-1300,-1700,-2800,19380
1007,beat30Fixed,2.70549598603852,0.0647641386840061,0.890051551407254,0.6875,-0.0807960376420967,0.0807960376420967,0.0810610541256047,-21.8237550590228,0.967241913816265,30.6357342151493,0.999947806224078,-1500,-1300,-1700,-2800,19380
1007,beat30Smoothed,2.70405957644416,0.0677582568607513,0.889997979459691,0.713541666666667,-0.0857838547861772,0.0857838547861772,0.0861012436887449,-21.2998115067554,0.967241913816265,30.6357342151493,0.999947806224078,-1500,-1300,-1700,-2800,19380
1008,currentSpO2,2.59781747644952,0.594692778208232,1.4092108768192,1,-0.31047203541093,0.31047203541093,0.344360323039138,-9.25973786897992,0.998535575417866,NaN,NaN,-1500,-450,-1550,-1950,19812
1008,beat30Raw,1.78877224107245,0.532671427056154,0.654136258551961,1,-0.569228781709667,0.569228781709667,0.692341523291764,-3.19359241455167,0.99949479640295,32.9423057492169,1,-1500,-900,-1550,-2400,19812
1008,beat30Fixed,1.78664050478285,0.556796953771237,0.625182104519459,1,-0.569033227775092,0.569033227775092,0.691989752401931,-3.19800673827083,0.995049004748914,32.9423057492169,1,-1500,-900,-1550,-2400,19812
1008,beat30Smoothed,1.78308857784046,0.576158061283796,0.623930410779376,1,-0.59048109683574,0.59048109683574,0.73165234091714,-2.71390467084532,0.995049004748914,32.9423057492169,1,-1500,-900,-1550,-2400,19812
1009,currentSpO2,2.83669667003818,0.559409087523039,0.573424985816257,0.143587477909619,-0.269173166945384,0.269173166945384,0.295824006212424,-10.5793317154675,0.998268433133331,NaN,NaN,-1500,-300,-1650,-1800,24839
1009,beat30Raw,2.80176342573014,0.473991936233616,0.216230619206137,0.0217240290495737,-0.530548205977342,0.530548205977342,0.625901283985777,-4.06988315051689,0.999476313245247,27.46169029971,0.999950786872919,-1500,-750,-1650,-2250,24839
1009,beat30Fixed,2.79550478647779,0.525899627427507,0.198125492192412,0.0217240290495737,-0.530391069038229,0.530391069038229,0.62564332794929,-4.07346365044436,0.995931356751531,27.46169029971,0.999950786872919,-1500,-750,-1650,-2250,24839
1009,beat30Smoothed,2.79239917174108,0.551430065358884,0.197277003053137,0.0212188190716767,-0.556843776592893,0.556843776592893,0.670397562331792,-3.47335147072315,0.995931356751531,27.46169029971,0.999950786872919,-1500,-750,-1650,-2250,24839
1010,currentSpO2,1.5727489386789,0.877530882105061,0.973701042456623,0.902373788030759,-0.0104171473009404,0.0104171473009404,0.0104024989487095,-39.6572463885079,0.997711561382598,NaN,NaN,-1500,-350,-1550,-1850,20982
1010,beat30Raw,2.06115407610554,0.744566935969018,0.527361897146693,0.680708793045804,-0.728470488045737,0.728470488045737,1.06334075203808,0.53344916658661,0.999332284065436,31.1137024848572,0.999953171419912,-1500,-750,-1550,-2250,20982
1010,beat30Fixed,2.07345716981439,0.745328885338195,0.511915959116538,0.676696756937479,-0.725831893250107,0.725831893250107,1.05518433592265,0.466566710795567,0.820956741546239,31.1137024848572,0.999953171419912,-1500,-750,-1550,-2250,20982
1010,beat30Smoothed,1.78426533828485,0.886576296257146,0.509726764129246,0.800066867268472,-0.877075849876423,0.877075849876423,1.82590271629227,5.22955269394416,0.820956741546239,31.1137024848572,0.999953171419912,-1500,-750,-1550,-2250,20982
1011,currentSpO2,2.52721384292711,0.416601599948624,0.751816692666047,0.598425196850394,-0.13117033683321,0.13117033683321,0.150611569315179,-16.4428333254212,0.99279045456184,NaN,NaN,-1500,-250,-1550,-1750,27746
1011,beat30Raw,1.81340076758592,0.33246687718616,0.395901209954148,0.307086614173228,-0.365021654778816,0.365021654778816,0.392075226186882,-8.13261196655598,0.999639405740661,35.7657219097072,0.999940574755833,-1500,-700,-1550,-2200,27746
1011,beat30Fixed,1.80251661380957,0.342018102592922,0.361520103271981,0.303149606299213,-0.368155996353957,0.368155996353957,0.395967129466169,-8.04681729583174,0.860630318765325,35.7657219097072,0.999940574755833,-1500,-700,-1550,-2200,27746
1011,beat30Smoothed,1.79385567915146,0.371222308527828,0.356257424437283,0.28740157480315,-0.392938180359238,0.392938180359238,0.427308811753901,-7.38516302562955,0.860630318765325,35.7657219097072,0.999940574755833,-1500,-700,-1550,-2200,27746
1012,currentSpO2,2.55531953649256,0.685244635114275,0.782564487862405,0.454208129532805,0.00206207293721361,-0.00206207293721361,0.00245472401253001,-52.1999465805802,0.97514061225366,NaN,NaN,-1500,100,-1100,-1400,23293
1012,beat30Raw,2.96233587939063,0.350534961175154,0.624174153687144,0.30450177035913,-0.603797073070352,0.603797073070352,0.75745607898866,-2.41285089231183,0.938203212230525,26.4134673194194,0.99992285064192,-1500,-350,-1100,-1850,23293
1012,beat30Fixed,2.45382905830111,0.599917315237049,0.397735008790212,0.326083291181925,-0.586163590399413,0.586163590399413,0.723486616392265,-2.81138996763,0.848320879498411,26.4134673194194,0.99992285064192,-1500,-350,-1100,-1850,23293
1012,beat30Smoothed,2.34881962411007,0.697907886864543,0.39415871223195,0.351036924633283,-0.693413890884749,0.693413890884749,0.962353746927119,-0.333305168414975,0.848320879498411,26.4134673194194,0.99992285064192,-1500,-350,-1100,-1850,23293
1013,currentSpO2,2.37234365072016,0.532015105574268,1.58126284866203,0.994892747701736,-0.010827134556275,0.010827134556275,0.00984567429400415,-40.1350907055257,0.901901698090158,NaN,NaN,0,1150,-50,1150,24580
1013,beat30Raw,1.99324181050019,0.326426856174502,0.968986617477222,0.752808988764045,-0.605492735801323,0.605492735801323,0.76081183986885,-2.37445474923362,0.947325571928682,27.5675730684686,0.999095659396834,0,700,-50,700,24580
1013,beat30Fixed,1.67381167314764,0.629412776032661,0.525341510304745,0.78855975485189,-0.597767389404416,0.597767389404416,0.745653058473412,-2.54926392879058,0.690751445086705,27.5675730684686,0.999095659396834,0,700,-50,700,24580
1013,beat30Smoothed,1.57793801193794,0.756092236297346,0.510480155257487,0.97344228804903,-0.718378353919168,0.718378353919168,1.03266825046673,0.279216495602436,0.690751445086705,27.5675730684686,0.999095659396834,0,700,-50,700,24580
1014,currentSpO2,2.03837445900667,0.414129517585863,1.80942199601858,0.977628635346756,-0.0454006759693938,0.0454006759693938,0.22077530046795,-13.1209903100247,0.874275045682053,NaN,NaN,-1500,100,-1300,-1400,25176
1014,beat30Raw,1.33717424282156,0.20306168639421,0.739564304295345,0.725950782997763,-0.267203286860809,0.267203286860809,0.277285330564469,-11.1414621124761,0.998688863284199,33.3590130716357,0.99993154955971,-1500,-350,-1300,-1850,25176
1014,beat30Fixed,1.25245038150895,0.21285509706567,0.561505245427233,0.700223713646532,-0.280024897779068,0.280024897779068,0.291694808464447,-10.7014260062049,0.658786602566649,33.3590130716357,0.99993154955971,-1500,-350,-1300,-1850,25176
1014,beat30Smoothed,1.24189432946081,0.224758863803881,0.552937588852935,0.78076062639821,-0.291678329606107,0.291678329606107,0.304938116180893,-10.3157657394936,0.658786602566649,33.3590130716357,0.99993154955971,-1500,-350,-1300,-1850,25176
1016,currentSpO2,1.56911256431486,0.454743769494939,0.881175679143145,0.797194054729824,-0.24057849217086,0.24057849217086,0.247858164051763,-12.115935431143,0.999681731381286,NaN,NaN,-1500,-450,-1850,-1950,22003
1016,beat30Raw,2.15575036773202,0.414763614118313,0.459714506852845,0.519146570296754,-0.427608604850573,0.427608604850573,0.473037215293531,-6.50209381269267,0.999545144416648,30.3266317944053,0.99992106174472,-1500,-900,-1850,-2400,22003
1016,beat30Fixed,2.14982938682783,0.424879266578083,0.450774403807293,0.516922649245952,-0.425570738537631,0.425570738537631,0.470282800182024,-6.5528180913609,0.988492153741187,30.3266317944053,0.99992106174472,-1500,-900,-1850,-2400,22003
1016,beat30Smoothed,2.14313361066468,0.443248325240054,0.449512228334227,0.519355062895267,-0.448457236208061,0.448457236208061,0.501739856985286,-5.99042796624035,0.988492153741187,30.3266317944053,0.99992106174472,-1500,-900,-1850,-2400,22003
1017,currentSpO2,2.20096364670167,0.366205454510402,1.28096020110266,0.692307692307692,-0.216704137924547,0.216704137924547,0.224979000940481,-12.9571603223302,0.995998950544405,NaN,NaN,0,1100,100,1100,15268
1017,beat30Raw,1.27166759884911,0.357758903697559,0.722999221855641,0.276923076923077,-0.359486742111165,0.359486742111165,0.385239959119813,-8.28537343795006,1,32.5256637168142,1,0,650,100,650,15268
1017,beat30Fixed,1.26701211792374,0.359131637863777,0.721851295880407,0.276923076923077,-0.361554892933854,0.361554892933854,0.387788462826926,-8.22810231696354,0.94939364142904,32.5256637168142,1,0,650,100,650,15268
1017,beat30Smoothed,1.26012501846283,0.373056681494483,0.721397293972124,0.430769230769231,-0.375356349357249,0.375356349357249,0.404967324968537,-7.851600333649,0.94939364142904,32.5256637168142,1,0,650,100,650,15268
1018,currentSpO2,1.08522602520209,0.684215841220408,0.761360473635673,0.96875,-0.327068379295401,0.327068379295401,0.346103857951518,-9.21587119367724,0.998867201115371,NaN,NaN,0,950,-100,950,11495
1018,beat30Raw,0.798034180475636,0.584461238068291,0.299433579679882,0.40625,-0.626216134137413,0.626216134137413,0.803202116760175,-1.90350311314317,0.999912929908576,33.9877231171093,1,0,500,-100,500,11495
1018,beat30Fixed,0.791301379470115,0.625337437554192,0.278125102810954,0.375,-0.643017043990933,0.643017043990933,0.839610206978331,-1.51844580847637,0.956987374836744,33.9877231171093,1,0,500,-100,500,11495
1018,beat30Smoothed,0.782993249894274,0.660222853288685,0.275914966053152,0.59375,-0.672937272796878,0.672937272796878,0.909744059181298,-0.821615435322687,0.956987374836744,33.9877231171093,1,0,500,-100,500,11495
1019,currentSpO2,1.28158629654583,0.270926207074547,0.832908388455298,0.41958041958042,-0.142329446762377,0.142329446762377,0.143793357849418,-16.8452234912977,0.999417249417249,NaN,NaN,0,-6000,0,-6000,6984
1019,beat30Raw,1.04748832033922,0.308007575995973,0.310958781788407,0.0769230769230769,-0.276240666578489,0.276240666578489,0.287424798214809,-10.8295152972267,1,32.3204189984216,1,0,750,0,750,6984
1019,beat30Fixed,1.03682339844481,0.337241612011903,0.297987045070565,0.0769230769230769,-0.311875773136103,0.311875773136103,0.328247826785956,-9.67596281081638,0.844740995838714,32.3204189984216,1,0,750,0,750,6984
1019,beat30Smoothed,1.03212001412829,0.351119009317715,0.297040197402935,0.0944055944055944,-0.325308612254621,0.325308612254621,0.344020614799892,-9.26831064708157,0.844740995838714,32.3204189984216,1,0,750,0,750,6984
1020,currentSpO2,2.14441794640394,0.662504646968259,1.1809280385081,0.958372310570627,0.00452181291375084,-0.00452181291375084,0.00482028070131368,-46.3385534116463,0.935007595898215,NaN,NaN,0,1150,0,1150,21087
1020,beat30Raw,2.07353639990007,0.518748751296725,0.748469534384683,0.739476145930776,-0.632878217039898,0.632878217039898,0.817406662665358,-1.75123653368726,0.950265755504935,29.9953967350038,1,0,750,0,750,21087
1020,beat30Fixed,1.87018992608687,0.64514406865288,0.53359968095235,0.740411599625818,-0.628968951626882,0.628968951626882,0.809035684060274,-1.84064645159403,0.58997722095672,29.9953967350038,1,0,750,0,750,21087
1020,beat30Smoothed,1.61848007136234,0.796141444174464,0.530866662002799,0.936389148737138,-0.787137250366911,0.787137250366911,1.2762086323259,2.11843355762884,0.58997722095672,29.9953967350038,1,0,750,0,750,21087
1021,currentSpO2,3.73564797378799,0.577331950469787,1.21775991627801,1,-0.194495258565548,0.194495258565548,0.198281754367214,-14.0543449435494,0.998976907337036,NaN,NaN,-1500,-500,-950,-2000,6852
1021,beat30Raw,2.01328337802842,0.506544691051828,0.87029709865757,1,-0.528499715545634,0.528499715545634,0.62254549858382,-4.11657805534973,0.998536299765808,30.8962236533958,0.99984885913099,-1500,-1000,-950,-2500,6852
1021,beat30Fixed,2.0076913741895,0.535070825851436,0.791094778836499,1,-0.530460267641346,0.530460267641346,0.625756913331445,-4.07188687258534,0.997072599531616,30.8962236533958,0.99984885913099,-1500,-1000,-950,-2500,6852
1021,beat30Smoothed,2.00125576115957,0.562476554730079,0.79038638890908,1,-0.558999434919714,0.558999434919714,0.674169059486799,-3.42462365992874,0.997072599531616,30.8962236533958,0.99984885913099,-1500,-1000,-950,-2500,6852
1022,currentSpO2,2.10451674185966,0.398916708845439,0.708219649664564,0.971014492753623,-0.00635664590389625,0.00635664590389625,0.00635677433411653,-43.9352641155391,0.996911156483954,NaN,NaN,-1500,-300,-1550,-1800,19107
1022,beat30Raw,1.45581757553878,0.327579946890451,0.33265565311101,0.561594202898551,-0.385653755558917,0.385653755558917,0.417987793728385,-7.57672801013609,0.999266746975331,32.1530403812916,1,-1500,-700,-1550,-2200,19107
1022,beat30Fixed,1.44974958253569,0.354970950413326,0.30387745052573,0.561594202898551,-0.388403253865742,0.388403253865742,0.421495036801903,-7.50415069847099,0.955271565495208,32.1530403812916,1,-1500,-700,-1550,-2200,19107
1022,beat30Smoothed,1.44072123880057,0.386798177711341,0.301894865794578,0.644927536231884,-0.417751173964627,0.417751173964627,0.459794064300251,-6.74873279088184,0.955271565495208,32.1530403812916,1,-1500,-700,-1550,-2200,19107
1023,currentSpO2,1.20153729952584,0.846367587170089,1.00663268179157,0.935104752171691,0.00447859889601957,-0.00447859889601957,0.00167794260414889,-55.5044579753638,0.953568089747585,NaN,NaN,-1500,-250,-1400,-1750,22468
1023,beat30Raw,1.86403603858279,0.558458471779694,0.6451483764304,0.676545733265202,-0.645131688656955,0.645131688656955,0.844334297371999,-1.46971138125658,0.986015854636145,31.9299011312016,0.999911348271945,-1500,-700,-1400,-2200,22468
1023,beat30Fixed,1.68439625586152,0.712924314315583,0.437310967440407,0.651507409299949,-0.692417809109345,0.692417809109345,0.959696350064861,-0.357323138200002,0.798343279593836,31.9299011312016,0.999911348271945,-1500,-700,-1400,-2200,22468
1023,beat30Smoothed,1.50655014252486,0.859495660538981,0.428954589694723,0.838017373530915,-0.838712640913505,0.838712640913505,1.5401254318043,3.7511218468869,0.798343279593836,31.9299011312016,0.999911348271945,-1500,-700,-1400,-2200,22468
1024,currentSpO2,2.65663737145267,0.282704560579339,0.96138452721391,0.151123010560762,-0.0937282566739018,0.0937282566739018,0.0941426899909251,-20.5242679303346,0.999920499264618,NaN,NaN,-1500,-500,-1800,-2000,25167
1024,beat30Raw,2.1326198542243,0.250950621011878,0.385171409542519,0.122415588279042,-0.265966727319469,0.265966727319469,0.275904186547736,-11.1848341904319,0.999483060283124,28.7915540003181,1,-1500,-950,-1800,-2450,25167
1024,beat30Fixed,2.12888507973564,0.253163881968315,0.376209309982562,0.122415588279042,-0.266517308368967,0.266517308368967,0.276518962604009,-11.1655016219486,0.993160489899793,28.7915540003181,1,-1500,-950,-1800,-2450,25167
1024,beat30Smoothed,2.11930210557163,0.280813922897457,0.375742051739248,0.125390450691655,-0.296043497356828,0.296043497356828,0.309936571773517,-10.1745435005566,0.993160489899793,28.7915540003181,1,-1500,-950,-1800,-2450,25167
1025,currentSpO2,1.68247908282765,0.211869379075243,0.566396443080251,0.180892717306186,-0.0446410816726645,0.0446410816726645,0.0442980420356022,-27.0723093815999,0.995508029893465,NaN,NaN,-1500,-600,-1600,-2100,25168
1025,beat30Raw,1.6392334031811,0.125801220784795,0.245570145850654,0.0062646828504307,-0.200581903891721,0.200581903891721,0.204742907000078,-13.7758226952907,0.997534497156718,29.7619596770987,0.999932758120741,-1500,-1050,-1600,-2550,25168
1025,beat30Fixed,1.6129558168051,0.196097249067087,0.1938436600613,0.0062646828504307,-0.206476189730121,0.206476189730121,0.211023401043827,-13.5133876352136,0.893943611564004,29.7619596770987,0.999932758120741,-1500,-1050,-1600,-2550,25168
1025,beat30Smoothed,1.6108217953146,0.202983201565897,0.19301948473928,0.00313234142521535,-0.212357032058219,0.212357032058219,0.217313486243323,-13.2582664198101,0.893943611564004,29.7619596770987,0.999932758120741,-1500,-1050,-1600,-2550,25168
1026,currentSpO2,1.23177151467848,0.386492640444639,0.457350059165523,0.583031988873435,-0.0931791170532208,0.0931791170532208,0.0935862770620476,-20.5757565793322,0.999363968834473,NaN,NaN,-1500,-550,-1600,-2050,25167
1026,beat30Raw,1.41718445055789,0.280595271768353,0.207297463197747,0.0598052851182197,-0.346233485538616,0.346233485538616,0.36906047568775,-8.65804925646759,0.999403507376625,29.0107368672207,1,-1500,-1000,-1600,-2500,25167
1026,beat30Fixed,1.4116022668046,0.348933171113088,0.164081401060763,0.0442280945757997,-0.360871565109222,0.360871565109222,0.386945698693872,-8.24699953229647,0.873583330019485,29.0107368672207,1,-1500,-1000,-1600,-2500,25167
1026,beat30Smoothed,1.40727468102685,0.378440011079417,0.1611240401064,0.0445062586926286,-0.390020125751956,0.390020125751956,0.423563687707963,-7.4616255843237,0.873583330019485,29.0107368672207,1,-1500,-1000,-1600,-2500,25167
1027,currentSpO2,1.46113880397387,0.299523197454577,1.30722357181304,0.285714285714286,-0.0744977220707188,0.0744977220707188,0.0746549166560295,-22.5388317008371,0.99106270074012,NaN,NaN,-1500,-4650,-5450,-6150,21576
1027,beat30Raw,1.79823587078131,0.122389127367899,0.658228823853917,0.25,-0.425323950288988,0.425323950288988,0.469949831826492,-6.55897002953356,0.991246857249278,28.8953347611509,1,-1500,-4900,-5450,-6400,21576
1027,beat30Fixed,1.77396816758194,0.477793970386345,0.306466246793114,0.214285714285714,-0.476342593849174,0.476342593849174,0.541754113105154,-5.32395565490803,0.689496228699134,28.8953347611509,1,-1500,-4900,-5450,-6400,21576
1027,beat30Smoothed,1.77278881092293,0.486226343119875,0.304544439444453,0.285714285714286,-0.484612003966235,0.484612003966235,0.554013737902182,-5.12958931838675,0.689496228699134,28.8953347611509,1,-1500,-4900,-5450,-6400,21576
1028,currentSpO2,1.05863746829682,0.431903240105948,0.600938782938494,0,-0.0860589777446903,0.0860589777446903,0.0863794416475328,-21.2717921507529,1,NaN,NaN,-1500,-150,-1400,-1650,10586
1028,beat30Raw,0.814263600641832,0.324820382695817,0.290332141193679,0,-0.387537337143824,0.387537337143824,0.420389056968728,-7.52697194992404,0.998959712502364,37.0400037828636,1,-1500,-600,-1400,-2100,10586
1028,beat30Fixed,0.810696383740797,0.382368237526926,0.206675488787889,0,-0.382452646683448,0.382452646683448,0.413920948146053,-7.66165187623602,0.956213353508606,37.0400037828636,1,-1500,-600,-1400,-2100,10586
1028,beat30Smoothed,0.805724936303036,0.415344983708399,0.203671366809485,0,-0.415344983708398,0.415344983708398,0.456591660054837,-6.80944050891929,0.956213353508606,37.0400037828636,1,-1500,-600,-1400,-2100,10586
